PMN-55PSN, 3.5.2023, 13:21
Diameter[mm] 1.000e+00  Thickness[mm] 1.500e-01  Spacer Capacity[pF] 0.000e+00  Spacer Area[mm^2] 0.000e+00
Fixed value(s) :  Temp. [K]=3.1193e+02  AC Volt  [Vrms]=3.000e-01
 Freq. [Hz]	 Eps'    	 Eps''   	 Sig' [S/cm]	  Cp' [F]	 Zs' [Ohms]	 Zs'' [Ohms]	M Temp [K]	Tan(Delta)  
3.00000e+06	2.48084e+03	3.94065e+02	6.57685e-04	1.15013e-10	7.14660e+01	-4.49915e+02	3.11965e+02	1.58843e-01
2.14286e+06	2.53351e+03	3.33427e+02	3.97487e-04	1.17455e-10	8.18043e+01	-6.21582e+02	3.11963e+02	1.31607e-01
1.53061e+06	2.58368e+03	2.82174e+02	2.40277e-04	1.19781e-10	9.36907e+01	-8.57864e+02	3.11964e+02	1.09214e-01
1.09329e+06	2.62700e+03	2.43798e+02	1.48285e-04	1.21789e-10	1.09982e+02	-1.18509e+03	3.11958e+02	9.28046e-02
7.80925e+05	2.66204e+03	2.14572e+02	9.32203e-05	1.23414e-10	1.32249e+02	-1.64073e+03	3.11954e+02	8.06042e-02
5.57803e+05	2.69627e+03	1.91632e+02	5.94674e-05	1.25000e-10	1.61415e+02	-2.27112e+03	3.11953e+02	7.10731e-02
3.98431e+05	2.72797e+03	1.73975e+02	3.85629e-05	1.26470e-10	2.00616e+02	-3.14570e+03	3.11951e+02	6.37747e-02
2.84594e+05	2.75825e+03	1.59846e+02	2.53079e-05	1.27874e-10	2.52596e+02	-4.35871e+03	3.11946e+02	5.79520e-02
2.03281e+05	2.78700e+03	1.48738e+02	1.68208e-05	1.29207e-10	3.22469e+02	-6.04232e+03	3.11944e+02	5.33685e-02
1.45201e+05	2.81477e+03	1.39524e+02	1.12706e-05	1.30494e-10	4.15338e+02	-8.37906e+03	3.11943e+02	4.95685e-02
1.03715e+05	2.84132e+03	1.31687e+02	7.59826e-06	1.31725e-10	5.38772e+02	-1.16247e+04	3.11940e+02	4.63473e-02
7.40820e+04	2.86681e+03	1.24974e+02	5.15064e-06	1.32907e-10	7.03322e+02	-1.61337e+04	3.11939e+02	4.35933e-02
5.29157e+04	2.89159e+03	1.19082e+02	3.50557e-06	1.34056e-10	9.22404e+02	-2.23982e+04	3.11937e+02	4.11820e-02
3.77969e+04	2.91515e+03	1.13843e+02	2.39383e-06	1.35148e-10	1.21489e+03	-3.11094e+04	3.11935e+02	3.90522e-02
2.69978e+04	2.93567e+03	1.09180e+02	1.63983e-06	1.36099e-10	1.60868e+03	-4.32549e+04	3.11932e+02	3.71906e-02
1.92842e+04	2.95736e+03	1.04841e+02	1.12477e-06	1.37105e-10	2.13132e+03	-6.01203e+04	3.11930e+02	3.54509e-02
1.37744e+04	2.97848e+03	1.01061e+02	7.74436e-07	1.38084e-10	2.83592e+03	-8.35805e+04	3.11930e+02	3.39304e-02
9.83886e+03	2.99892e+03	9.76073e+01	5.34264e-07	1.39031e-10	3.78287e+03	-1.16226e+05	3.11927e+02	3.25475e-02
7.02775e+03	3.01889e+03	9.45212e+01	3.69552e-07	1.39957e-10	5.06132e+03	-1.61652e+05	3.11925e+02	3.13099e-02
5.01983e+03	3.03773e+03	9.16441e+01	2.55931e-07	1.40831e-10	6.78568e+03	-2.24925e+05	3.11923e+02	3.01686e-02
3.58559e+03	3.05622e+03	8.92180e+01	1.77968e-07	1.41688e-10	9.13745e+03	-3.13009e+05	3.11920e+02	2.91923e-02
2.56114e+03	3.07419e+03	8.70965e+01	1.24097e-07	1.42521e-10	1.23433e+04	-4.35673e+05	3.11919e+02	2.83315e-02
1.82938e+03	3.09170e+03	8.54178e+01	8.69325e-08	1.43333e-10	1.67567e+04	-6.06511e+05	3.11917e+02	2.76281e-02
1.30670e+03	3.10896e+03	8.41100e+01	6.11440e-08	1.44133e-10	2.28453e+04	-8.44429e+05	3.11918e+02	2.70541e-02
9.33358e+02	3.12602e+03	8.31913e+01	4.31972e-08	1.44924e-10	3.12903e+04	-1.17578e+06	3.11916e+02	2.66125e-02
6.66685e+02	3.14316e+03	8.25722e+01	3.06255e-08	1.45719e-10	4.30083e+04	-1.63714e+06	3.11915e+02	2.62704e-02
4.76203e+02	3.15976e+03	8.20198e+01	2.17290e-08	1.46488e-10	5.91829e+04	-2.27999e+06	3.11914e+02	2.59576e-02
3.40145e+02	3.17689e+03	8.22362e+01	1.55617e-08	1.47282e-10	8.21816e+04	-3.17478e+06	3.11912e+02	2.58857e-02
2.42961e+02	3.19358e+03	8.24007e+01	1.11377e-08	1.48056e-10	1.14083e+05	-4.42149e+06	3.11910e+02	2.58020e-02
1.73543e+02	3.21070e+03	8.27637e+01	7.99056e-09	1.48850e-10	1.58714e+05	-6.15710e+06	3.11909e+02	2.57775e-02
1.23960e+02	3.22717e+03	8.29576e+01	5.72092e-09	1.49613e-10	2.20453e+05	-8.57596e+06	3.11908e+02	2.57060e-02
8.85426e+01	3.24467e+03	8.35047e+01	4.11332e-09	1.50425e-10	3.07327e+05	-1.19416e+07	3.11909e+02	2.57359e-02
6.32447e+01	3.26119e+03	8.41297e+01	2.96007e-09	1.51190e-10	4.29097e+05	-1.66335e+07	3.11907e+02	2.57972e-02
4.51748e+01	3.27769e+03	8.50506e+01	2.13748e-09	1.51955e-10	6.01209e+05	-2.31695e+07	3.11905e+02	2.59483e-02
3.22677e+01	3.29453e+03	8.69818e+01	1.56144e-09	1.52736e-10	8.52008e+05	-3.22707e+07	3.11906e+02	2.64019e-02
2.30484e+01	3.31030e+03	8.94670e+01	1.14718e-09	1.53467e-10	1.21519e+06	-4.49622e+07	3.11908e+02	2.70268e-02
1.64631e+01	3.32776e+03	9.32551e+01	8.54109e-10	1.54276e-10	1.75464e+06	-6.26135e+07	3.11907e+02	2.80234e-02
1.17594e+01	3.34575e+03	9.87133e+01	6.45786e-10	1.55111e-10	2.57216e+06	-8.71798e+07	3.11908e+02	2.95040e-02
8.39955e+00	3.36466e+03	1.05867e+02	4.94704e-10	1.55987e-10	3.81825e+06	-1.21352e+08	3.11908e+02	3.14644e-02
5.99968e+00	3.38567e+03	1.14565e+02	3.82391e-10	1.56961e-10	5.71225e+06	-1.68812e+08	3.11910e+02	3.38380e-02
4.28548e+00	3.41027e+03	1.24398e+02	2.96580e-10	1.58102e-10	8.55717e+06	-2.34588e+08	3.11912e+02	3.64774e-02
3.06106e+00	3.43797e+03	1.34478e+02	2.29009e-10	1.59386e-10	1.27404e+07	-3.25712e+08	3.11912e+02	3.91156e-02
2.18647e+00	3.47455e+03	1.43015e+02	1.73962e-10	1.61082e-10	1.85686e+07	-4.51123e+08	3.11913e+02	4.11608e-02
1.56176e+00	3.50837e+03	1.46968e+02	1.27693e-10	1.62650e-10	2.62003e+07	-6.25446e+08	3.11916e+02	4.18906e-02
1.11555e+00	3.54519e+03	1.46083e+02	9.06600e-11	1.64357e-10	3.57082e+07	-8.66580e+08	3.11915e+02	4.12059e-02
7.96819e-01	3.57682e+03	1.40995e+02	6.25017e-11	1.65823e-10	4.74075e+07	-1.20265e+09	3.11914e+02	3.94190e-02
5.69156e-01	3.60750e+03	1.36823e+02	4.33233e-11	1.67246e-10	6.33232e+07	-1.66959e+09	3.11916e+02	3.79274e-02
4.06540e-01	3.63410e+03	1.31416e+02	2.97221e-11	1.68479e-10	8.39178e+07	-2.32062e+09	3.11923e+02	3.61618e-02
2.90386e-01	3.65877e+03	1.26313e+02	2.04058e-11	1.69622e-10	1.11418e+08	-3.22733e+09	3.11930e+02	3.45233e-02
2.07419e-01	3.68348e+03	1.23363e+02	1.42352e-11	1.70768e-10	1.50317e+08	-4.48827e+09	3.11936e+02	3.34910e-02
1.48156e-01	3.70486e+03	1.20667e+02	9.94575e-12	1.71759e-10	2.03487e+08	-6.24770e+09	3.11946e+02	3.25699e-02
1.05826e-01	3.72658e+03	1.18538e+02	6.97874e-12	1.72766e-10	2.76615e+08	-8.69622e+09	3.11968e+02	3.18087e-02
7.55898e-02	3.74689e+03	1.19821e+02	5.03876e-12	1.73708e-10	3.87217e+08	-1.21086e+10	3.11988e+02	3.19787e-02
5.39927e-02	3.76464e+03	1.18476e+02	3.55872e-12	1.74531e-10	5.30993e+08	-1.68726e+10	3.12005e+02	3.14707e-02
3.85662e-02	3.78418e+03	1.18195e+02	2.53593e-12	1.75436e-10	7.34004e+08	-2.35001e+10	3.12014e+02	3.12341e-02
2.75473e-02	3.80367e+03	1.17909e+02	1.80698e-12	1.76340e-10	1.01465e+09	-3.27320e+10	3.11982e+02	3.09986e-02
1.96766e-02	3.82699e+03	1.16225e+02	1.27227e-12	1.77421e-10	1.38326e+09	-4.55474e+10	3.12019e+02	3.03698e-02
1.00000e-02	3.86853e+03	1.17543e+02	6.53924e-13	1.79347e-10	2.69387e+09	-8.86594e+10	3.12010e+02	3.03844e-02