PMN-55PSN, 3.5.2023, 13:21
Diameter[mm] 1.000e+00  Thickness[mm] 1.500e-01  Spacer Capacity[pF] 0.000e+00  Spacer Area[mm^2] 0.000e+00
Fixed value(s) :  Temp. [K]=2.6997e+02  AC Volt  [Vrms]=3.000e-01
 Freq. [Hz]	 Eps'    	 Eps''   	 Sig' [S/cm]	  Cp' [F]	 Zs' [Ohms]	 Zs'' [Ohms]	M Temp [K]	Tan(Delta)  
3.00000e+06	3.42383e+02	2.45479e+01	4.09698e-05	1.58731e-11	2.38404e+02	-3.32515e+03	2.69903e+02	7.16970e-02
2.14286e+06	3.46959e+02	2.29460e+01	2.73545e-05	1.60852e-11	3.04042e+02	-4.59733e+03	2.69907e+02	6.61346e-02
1.53061e+06	3.51397e+02	2.21574e+01	1.88675e-05	1.62909e-11	4.00874e+02	-6.35750e+03	2.69910e+02	6.30554e-02
1.09329e+06	3.56230e+02	2.18929e+01	1.33158e-05	1.65150e-11	5.39684e+02	-8.78147e+03	2.69914e+02	6.14571e-02
7.80925e+05	3.60785e+02	2.14406e+01	9.31483e-06	1.67262e-11	7.21560e+02	-1.21418e+04	2.69923e+02	5.94277e-02
5.57803e+05	3.65243e+02	2.11003e+01	6.54787e-06	1.69328e-11	9.70221e+02	-1.67943e+04	2.69928e+02	5.77708e-02
3.98431e+05	3.69673e+02	2.08146e+01	4.61371e-06	1.71382e-11	1.30821e+03	-2.32342e+04	2.69929e+02	5.63055e-02
2.84594e+05	3.74025e+02	2.05688e+01	3.25659e-06	1.73400e-11	1.76825e+03	-3.21540e+04	2.69930e+02	5.49931e-02
2.03281e+05	3.78362e+02	2.03018e+01	2.29594e-06	1.75410e-11	2.38807e+03	-4.45061e+04	2.69933e+02	5.36572e-02
1.45201e+05	3.82614e+02	2.01100e+01	1.62446e-06	1.77382e-11	3.23888e+03	-6.16232e+04	2.69935e+02	5.25595e-02
1.03715e+05	3.86958e+02	1.99142e+01	1.14903e-06	1.79396e-11	4.39053e+03	-8.53136e+04	2.69938e+02	5.14634e-02
7.40820e+04	3.91276e+02	1.97333e+01	8.13284e-07	1.81397e-11	5.95786e+03	-1.18134e+05	2.69940e+02	5.04333e-02
5.29157e+04	3.95443e+02	1.95399e+01	5.75222e-07	1.83329e-11	8.08691e+03	-1.63661e+05	2.69942e+02	4.94126e-02
3.77969e+04	3.99769e+02	1.93231e+01	4.06315e-07	1.85335e-11	1.09562e+04	-2.26669e+05	2.69944e+02	4.83356e-02
2.69978e+04	4.03856e+02	1.90945e+01	2.86791e-07	1.87230e-11	1.48535e+04	-3.14157e+05	2.69945e+02	4.72804e-02
1.92842e+04	4.07900e+02	1.88309e+01	2.02023e-07	1.89104e-11	2.01053e+04	-4.35505e+05	2.69949e+02	4.61655e-02
1.37744e+04	4.11916e+02	1.85406e+01	1.42078e-07	1.90966e-11	2.71786e+04	-6.03826e+05	2.69949e+02	4.50107e-02
9.83886e+03	4.15971e+02	1.82173e+01	9.97142e-08	1.92846e-11	3.66651e+04	-8.37206e+05	2.69952e+02	4.37946e-02
7.02775e+03	4.19699e+02	1.78586e+01	6.98221e-08	1.94575e-11	4.94357e+04	-1.16180e+06	2.69953e+02	4.25509e-02
5.01983e+03	4.23368e+02	1.75197e+01	4.89266e-08	1.96276e-11	6.67315e+04	-1.61258e+06	2.69953e+02	4.13817e-02
3.58559e+03	4.27019e+02	1.72797e+01	3.44687e-08	1.97968e-11	9.05822e+04	-2.23849e+06	2.69955e+02	4.04658e-02
2.56114e+03	4.30400e+02	1.71706e+01	2.44651e-08	1.99536e-11	1.24048e+05	-3.10940e+06	2.69955e+02	3.98945e-02
1.82938e+03	4.33805e+02	1.73020e+01	1.76088e-08	2.01114e-11	1.72260e+05	-4.31899e+06	2.69956e+02	3.98842e-02
1.30670e+03	4.37312e+02	1.75784e+01	1.27787e-08	2.02740e-11	2.41097e+05	-5.99796e+06	2.69958e+02	4.01965e-02
9.33358e+02	4.41033e+02	1.79325e+01	9.31145e-09	2.04465e-11	3.38536e+05	-8.32599e+06	2.69958e+02	4.06602e-02
6.66685e+02	4.44878e+02	1.82886e+01	6.78312e-09	2.06248e-11	4.75026e+05	-1.15552e+07	2.69960e+02	4.11092e-02
4.76203e+02	4.48854e+02	1.86280e+01	4.93500e-09	2.08091e-11	6.65407e+05	-1.60335e+07	2.69961e+02	4.15011e-02
3.40145e+02	4.52895e+02	1.89045e+01	3.57733e-09	2.09964e-11	9.28587e+05	-2.22461e+07	2.69964e+02	4.17415e-02
2.42961e+02	4.57004e+02	1.91596e+01	2.58972e-09	2.11869e-11	1.29396e+06	-3.08640e+07	2.69966e+02	4.19244e-02
1.73543e+02	4.61129e+02	1.94066e+01	1.87364e-09	2.13781e-11	1.80219e+06	-4.28226e+07	2.69967e+02	4.20849e-02
1.23960e+02	4.65286e+02	1.96042e+01	1.35194e-09	2.15709e-11	2.50341e+06	-5.94158e+07	2.69969e+02	4.21337e-02
8.85426e+01	4.69505e+02	1.97594e+01	9.73321e-10	2.17665e-11	3.46932e+06	-8.24348e+07	2.69970e+02	4.20857e-02
6.32447e+01	4.73733e+02	1.99109e+01	7.00557e-10	2.19625e-11	4.80733e+06	-1.14379e+08	2.69972e+02	4.20297e-02
4.51748e+01	4.77970e+02	2.00665e+01	5.04310e-10	2.21589e-11	6.66319e+06	-1.58712e+08	2.69974e+02	4.19828e-02
3.22677e+01	4.82157e+02	2.02037e+01	3.62684e-10	2.23530e-11	9.22990e+06	-2.20269e+08	2.69974e+02	4.19028e-02
2.30484e+01	4.86346e+02	2.04381e+01	2.62065e-10	2.25472e-11	1.28474e+07	-3.05718e+08	2.69976e+02	4.20238e-02
1.64631e+01	4.90578e+02	2.06556e+01	1.89182e-10	2.27435e-11	1.78654e+07	-4.24309e+08	2.69977e+02	4.21046e-02
1.17594e+01	4.94793e+02	2.11534e+01	1.38386e-10	2.29389e-11	2.51783e+07	-5.88940e+08	2.69980e+02	4.27519e-02
8.39955e+00	4.98992e+02	2.18534e+01	1.02119e-10	2.31335e-11	3.58028e+07	-8.17506e+08	2.69979e+02	4.37952e-02
5.99968e+00	5.03575e+02	2.26128e+01	7.54763e-11	2.33460e-11	5.09207e+07	-1.13398e+09	2.69985e+02	4.49044e-02
4.28548e+00	5.08187e+02	2.35963e+01	5.62565e-11	2.35598e-11	7.30354e+07	-1.57294e+09	2.69996e+02	4.64323e-02
3.06106e+00	5.13246e+02	2.48781e+01	4.23661e-11	2.37943e-11	1.05669e+08	-2.17999e+09	2.69998e+02	4.84721e-02
2.18647e+00	5.18689e+02	2.61033e+01	3.17518e-11	2.40467e-11	1.51954e+08	-3.01942e+09	2.70004e+02	5.03256e-02
1.56176e+00	5.24551e+02	2.72906e+01	2.37115e-11	2.43184e-11	2.17431e+08	-4.17921e+09	2.70006e+02	5.20267e-02
1.11555e+00	5.30876e+02	2.78249e+01	1.72684e-11	2.46117e-11	3.02998e+08	-5.78095e+09	2.70005e+02	5.24132e-02
7.96819e-01	5.36907e+02	2.82784e+01	1.25356e-11	2.48913e-11	4.21469e+08	-8.00221e+09	2.70006e+02	5.26691e-02
5.69156e-01	5.42457e+02	2.84231e+01	8.99980e-12	2.51486e-11	5.81020e+08	-1.10888e+10	2.70008e+02	5.23970e-02
4.06540e-01	5.48191e+02	2.88819e+01	6.53219e-12	2.54144e-11	8.09331e+08	-1.53615e+10	2.70010e+02	5.26858e-02
2.90386e-01	5.53755e+02	2.95811e+01	4.77880e-12	2.56724e-11	1.13720e+09	-2.12883e+10	2.70014e+02	5.34191e-02
2.07419e-01	5.58965e+02	3.08164e+01	3.55597e-12	2.59139e-11	1.62749e+09	-2.95204e+10	2.70022e+02	5.51311e-02
1.48156e-01	5.64142e+02	3.26610e+01	2.69202e-12	2.61539e-11	2.37002e+09	-4.09365e+10	2.70031e+02	5.78950e-02
1.05826e-01	5.69422e+02	3.49454e+01	2.05736e-12	2.63987e-11	3.48313e+09	-5.67562e+10	2.70040e+02	6.13699e-02
7.55898e-02	5.74564e+02	3.78350e+01	1.59106e-12	2.66371e-11	5.18259e+09	-7.87030e+10	2.70035e+02	6.58500e-02
5.39927e-02	5.80353e+02	4.13873e+01	1.24317e-12	2.69055e-11	7.77349e+09	-1.09004e+11	2.70016e+02	7.13140e-02
3.85662e-02	5.85656e+02	4.56808e+01	9.80100e-13	2.71513e-11	1.17836e+10	-1.51073e+11	2.69992e+02	7.79994e-02
2.75473e-02	5.91696e+02	5.02796e+01	7.70549e-13	2.74313e-11	1.77690e+10	-2.09108e+11	2.69978e+02	8.49754e-02
1.96766e-02	5.98502e+02	5.56273e+01	6.08931e-13	2.77468e-11	2.68622e+10	-2.89015e+11	2.70016e+02	9.29441e-02
1.00000e-02	6.14936e+02	7.10463e+01	3.95249e-13	2.85087e-11	6.36495e+10	-5.50914e+11	2.69992e+02	1.15534e-01