PMN-55PSN, 3.5.2023, 13:21
Diameter[mm] 1.000e+00  Thickness[mm] 1.500e-01  Spacer Capacity[pF] 0.000e+00  Spacer Area[mm^2] 0.000e+00
Fixed value(s) :  Temp. [K]=3.4394e+02  AC Volt  [Vrms]=3.000e-01
 Freq. [Hz]	 Eps'    	 Eps''   	 Sig' [S/cm]	  Cp' [F]	 Zs' [Ohms]	 Zs'' [Ohms]	M Temp [K]	Tan(Delta)  
3.00000e+06	1.59533e+03	1.41595e+02	2.36319e-04	7.39602e-11	6.31672e+01	-7.11693e+02	3.43901e+02	8.87562e-02
2.14286e+06	1.60711e+03	1.10949e+02	1.32266e-04	7.45062e-11	6.84935e+01	-9.92132e+02	3.43901e+02	6.90367e-02
1.53061e+06	1.61991e+03	9.04888e+01	7.70529e-05	7.50998e-11	7.71024e+01	-1.38027e+03	3.43905e+02	5.58604e-02
1.09329e+06	1.63179e+03	7.55561e+01	4.59553e-05	7.56507e-11	8.89089e+01	-1.92017e+03	3.43904e+02	4.63026e-02
7.80925e+05	1.63998e+03	6.43778e+01	2.79689e-05	7.60301e-11	1.05064e+02	-2.67643e+03	3.43905e+02	3.92553e-02
5.57803e+05	1.64889e+03	5.54454e+01	1.72058e-05	7.64432e-11	1.25367e+02	-3.72829e+03	3.43905e+02	3.36259e-02
3.98431e+05	1.65703e+03	4.84891e+01	1.07480e-05	7.68208e-11	1.52030e+02	-5.19537e+03	3.43906e+02	2.92626e-02
2.84594e+05	1.66450e+03	4.29631e+01	6.80220e-06	7.71668e-11	1.86934e+02	-7.24228e+03	3.43910e+02	2.58115e-02
2.03281e+05	1.67144e+03	3.85543e+01	4.36012e-06	7.74887e-11	2.32936e+02	-1.00984e+04	3.43911e+02	2.30665e-02
1.45201e+05	1.67796e+03	3.49867e+01	2.82619e-06	7.77910e-11	2.93667e+02	-1.40842e+04	3.43914e+02	2.08508e-02
1.03715e+05	1.68399e+03	3.20893e+01	1.85153e-06	7.80704e-11	3.74418e+02	-1.96488e+04	3.43916e+02	1.90556e-02
7.40820e+04	1.68956e+03	2.98417e+01	1.22989e-06	7.83287e-11	4.84285e+02	-2.74190e+04	3.43919e+02	1.76624e-02
5.29157e+04	1.69491e+03	2.80311e+01	8.25190e-07	7.85768e-11	6.32872e+02	-3.82668e+04	3.43918e+02	1.65384e-02
3.77969e+04	1.70000e+03	2.66298e+01	5.59957e-07	7.88128e-11	8.36720e+02	-5.34146e+04	3.43919e+02	1.56646e-02
2.69978e+04	1.70505e+03	2.55142e+01	3.83212e-07	7.90469e-11	1.11571e+03	-7.45605e+04	3.43921e+02	1.49639e-02
1.92842e+04	1.70992e+03	2.46000e+01	2.63916e-07	7.92728e-11	1.49749e+03	-1.04089e+05	3.43923e+02	1.43866e-02
1.37744e+04	1.71481e+03	2.39029e+01	1.83169e-07	7.94996e-11	2.02550e+03	-1.45311e+05	3.43921e+02	1.39391e-02
9.83886e+03	1.71947e+03	2.33710e+01	1.27924e-07	7.97154e-11	2.75763e+03	-2.02886e+05	3.43924e+02	1.35920e-02
7.02775e+03	1.72391e+03	2.30762e+01	9.02214e-08	7.99215e-11	3.79237e+03	-2.83310e+05	3.43925e+02	1.33859e-02
5.01983e+03	1.72843e+03	2.29551e+01	6.41057e-08	8.01309e-11	5.25390e+03	-3.95599e+05	3.43927e+02	1.32809e-02
3.58559e+03	1.73280e+03	2.30630e+01	4.60051e-08	8.03333e-11	7.35284e+03	-5.52442e+05	3.43927e+02	1.33097e-02
2.56114e+03	1.73746e+03	2.33083e+01	3.32103e-08	8.05497e-11	1.03476e+04	-7.71340e+05	3.43930e+02	1.34152e-02
1.82938e+03	1.74235e+03	2.37593e+01	2.41806e-08	8.07763e-11	1.46841e+04	-1.07684e+06	3.43932e+02	1.36363e-02
1.30670e+03	1.74730e+03	2.42649e+01	1.76394e-08	8.10057e-11	2.08763e+04	-1.50330e+06	3.43931e+02	1.38871e-02
9.33358e+02	1.75244e+03	2.48635e+01	1.29104e-08	8.12441e-11	2.97722e+04	-2.09842e+06	3.43934e+02	1.41879e-02
6.66685e+02	1.75764e+03	2.54332e+01	9.43300e-09	8.14852e-11	4.23838e+04	-2.92907e+06	3.43935e+02	1.44700e-02
4.76203e+02	1.76295e+03	2.59248e+01	6.86811e-09	8.17312e-11	6.01204e+04	-4.08833e+06	3.43936e+02	1.47054e-02
3.40145e+02	1.76822e+03	2.65155e+01	5.01757e-09	8.19755e-11	8.55731e+04	-5.70656e+06	3.43937e+02	1.49956e-02
2.42961e+02	1.77343e+03	2.72532e+01	3.68368e-09	8.22171e-11	1.22411e+05	-7.96562e+06	3.43937e+02	1.53675e-02
1.73543e+02	1.77872e+03	2.82797e+01	2.73031e-09	8.24623e-11	1.76772e+05	-1.11185e+07	3.43940e+02	1.58989e-02
1.23960e+02	1.78415e+03	2.98284e+01	2.05702e-09	8.27140e-11	2.59440e+05	-1.55181e+07	3.43939e+02	1.67185e-02
8.85426e+01	1.78963e+03	3.18752e+01	1.57012e-09	8.29681e-11	3.85753e+05	-2.16580e+07	3.43940e+02	1.78111e-02
6.32447e+01	1.79558e+03	3.47160e+01	1.22147e-09	8.32440e-11	5.84258e+05	-3.02190e+07	3.43942e+02	1.93341e-02
4.51748e+01	1.80240e+03	3.82537e+01	9.61387e-10	8.35600e-11	8.94442e+05	-4.21434e+07	3.43942e+02	2.12238e-02
3.22677e+01	1.81006e+03	4.24438e+01	7.61924e-10	8.39152e-11	1.37751e+06	-5.87453e+07	3.43943e+02	2.34489e-02
2.30484e+01	1.81964e+03	4.73092e+01	6.06617e-10	8.43592e-11	2.12674e+06	-8.18002e+07	3.43945e+02	2.59992e-02
1.64631e+01	1.83176e+03	5.21680e+01	4.77799e-10	8.49213e-11	3.23948e+06	-1.13747e+08	3.43946e+02	2.84797e-02
1.17594e+01	1.84546e+03	5.54103e+01	3.62497e-10	8.55563e-11	4.74547e+06	-1.58049e+08	3.43947e+02	3.00253e-02
8.39955e+00	1.85998e+03	5.61725e+01	2.62488e-10	8.62294e-11	6.63024e+06	-2.19540e+08	3.43948e+02	3.02007e-02
5.99968e+00	1.87440e+03	5.48575e+01	1.83102e-10	8.68983e-11	8.92652e+06	-3.05007e+08	3.43952e+02	2.92667e-02
4.28548e+00	1.88759e+03	5.14413e+01	1.22643e-10	8.75098e-11	1.15570e+07	-4.24074e+08	3.43955e+02	2.72523e-02
3.06106e+00	1.89829e+03	4.77066e+01	8.12418e-11	8.80055e-11	1.48382e+07	-5.90425e+08	3.43956e+02	2.51314e-02
2.18647e+00	1.90789e+03	4.41197e+01	5.36668e-11	8.84507e-11	1.90205e+07	-8.22513e+08	3.43961e+02	2.31249e-02
1.56176e+00	1.91592e+03	4.09148e+01	3.55488e-11	8.88231e-11	2.44897e+07	-1.14678e+09	3.43964e+02	2.13551e-02
1.11555e+00	1.92345e+03	3.87748e+01	2.40639e-11	8.91721e-11	3.22400e+07	-1.59929e+09	3.43966e+02	2.01590e-02
7.96819e-01	1.93058e+03	3.67413e+01	1.62871e-11	8.95026e-11	4.24556e+07	-2.23084e+09	3.43970e+02	1.90312e-02
5.69156e-01	1.93772e+03	3.58852e+01	1.13626e-11	8.98334e-11	5.76272e+07	-3.11173e+09	3.43973e+02	1.85194e-02
4.06540e-01	1.94486e+03	3.49824e+01	7.91194e-12	9.01647e-11	7.80730e+07	-4.34050e+09	3.43975e+02	1.79871e-02
2.90386e-01	1.95122e+03	3.42793e+01	5.53780e-12	9.04594e-11	1.06410e+08	-6.05699e+09	3.43979e+02	1.75682e-02
2.07419e-01	1.95771e+03	3.40389e+01	3.92783e-12	9.07602e-11	1.46952e+08	-8.45174e+09	3.43992e+02	1.73871e-02
1.48156e-01	1.96388e+03	3.31940e+01	2.73595e-12	9.10462e-11	1.99370e+08	-1.17954e+10	3.44002e+02	1.69023e-02
1.05826e-01	1.97033e+03	3.27607e+01	1.92874e-12	9.13457e-11	2.73675e+08	-1.64596e+10	3.44007e+02	1.66270e-02
7.55898e-02	1.97659e+03	3.31365e+01	1.39347e-12	9.16359e-11	3.85086e+08	-2.29704e+10	3.44012e+02	1.67644e-02
5.39927e-02	1.98256e+03	3.28283e+01	9.86081e-13	9.19125e-11	5.30899e+08	-3.20620e+10	3.44007e+02	1.65585e-02
3.85662e-02	1.98811e+03	3.30054e+01	7.08144e-13	9.21696e-11	7.43105e+08	-4.47616e+10	3.44001e+02	1.66014e-02
2.75473e-02	1.99398e+03	3.24069e+01	4.96645e-13	9.24417e-11	1.01549e+09	-6.24824e+10	3.43988e+02	1.62524e-02
1.96766e-02	1.99998e+03	3.23196e+01	3.53791e-13	9.27200e-11	1.40936e+09	-8.72132e+10	3.43991e+02	1.61600e-02
1.00000e-02	2.01148e+03	3.20865e+01	1.78506e-13	9.32530e-11	2.72179e+09	-1.70627e+11	3.43997e+02	1.59517e-02